,Al,Si,Fe,Cu,Mn,Mg,Cr,Ni-L,Zn,Ti,B,Be,Bi,Ca,Cd,Ga,Hg,In,Na,P,Pb,Sn,Sr,V,Zr,Ecorr[mV]
0,65.02,26.694,0.835,0.113,0.49,3.612,0.01,0.042,0.145,0.0,0.01,0.0033,0.726,0.1771,0.033,0.003,0.0352,0.0,0.1797,0.0121,0.61,0.473,0.6694,0.078,0.031,-720.019189739949
1,58.17,39.426,1.178,0.111,0.672,0.154,0.008,0.019,0.001,0.0,0.002,0.0007,0.084,0.0022,0.002,0.004,0.0084,0.0,0.0033,0.0024,0.013,0.068,0.0372,0.022,0.01,-719.661113342592
2,58.95,39.146,0.991,0.105,0.575,0.049,0.007,0.011,0.003,0.0,0.001,0.0005,0.06,0.0004,0.001,0.003,0.0047,0.0,0.0009,0.0022,0.006,0.043,0.0156,0.017,0.008,-719.300727783248
3,61.44,36.913,0.857,0.105,0.524,0.025,0.007,0.009,0.002,0.001,0.0012,0.0004,0.046,0.0,0.0,0.003,0.0076,0.0,0.0002,0.0021,0.001,0.032,0.0093,0.014,0.003,-718.955003602561
4,65.58,32.96,0.754,0.103,0.481,0.012,0.006,0.009,0.0,0.001,0.0007,0.0001,0.034,0.0,0.0,0.005,0.0045,0.0,0.0,0.0021,0.01,0.016,0.0068,0.013,0.003,-718.607298956802
5,70.46,28.212,0.67,0.109,0.437,0.013,0.005,0.008,0.002,0.001,0.0008,0.0002,0.03,0.0,0.0,0.006,0.0044,0.0,0.0,0.0021,0.0,0.013,0.0056,0.015,0.003,-718.287070775403
6,74.74,24.038,0.593,0.118,0.402,0.01,0.005,0.008,0.003,0.002,0.0011,0.0001,0.026,0.0,0.0,0.007,0.0061,0.0,0.0,0.002,0.009,0.006,0.0044,0.012,0.002,-717.962295701259
7,78.81,20.132,0.502,0.116,0.359,0.008,0.005,0.007,0.003,0.002,0.0008,0.0001,0.022,0.0,0.0,0.01,0.0025,0.0,0.0,0.002,0.0,0.001,0.0034,0.015,0.002,-717.646048431413
8,81.3,17.723,0.445,0.119,0.334,0.009,0.003,0.006,0.002,0.001,0.0008,0.0,0.019,0.0,0.0,0.009,0.0025,0.0,0.0,0.002,0.002,0.008,0.0026,0.012,0.003,-717.351124292576
9,82.58,16.509,0.407,0.122,0.309,0.01,0.004,0.006,0.004,0.0,0.0011,0.0,0.016,0.0,0.0,0.011,0.002,0.0,0.0,0.002,0.0,0.002,0.002,0.013,0.002,-717.0638538159
10,83.58,15.559,0.377,0.123,0.292,0.007,0.003,0.005,0.004,0.001,0.0005,0.0,0.016,0.0,0.0,0.011,0.0017,0.0,0.0,0.002,0.0,0.002,0.0016,0.01,0.001,-716.772914640699
11,84.53,14.649,0.346,0.121,0.279,0.008,0.004,0.004,0.006,0.0,0.0005,0.0,0.016,0.0,0.0,0.011,0.0017,0.0,0.0,0.002,0.0,0.006,0.0012,0.009,0.0,-716.503816436112
12,85.32,13.905,0.322,0.125,0.263,0.007,0.003,0.005,0.003,0.0,0.0005,0.0,0.018,0.0,0.0,0.013,0.0012,0.0,0.0,0.002,0.001,0.002,0.0008,0.01,0.002,-716.243009699044
13,85.91,13.33,0.316,0.125,0.257,0.009,0.003,0.006,0.004,0.001,0.0002,0.0,0.011,0.0,0.0,0.012,0.001,0.0,0.0,0.002,0.0,0.002,0.0004,0.008,0.001,-715.979618150551
14,86.47,12.817,0.289,0.124,0.245,0.007,0.003,0.005,0.003,0.0,0.0004,0.0,0.009,0.0,0.0,0.012,0.0003,0.0,0.0,0.002,0.0,0.004,0.0003,0.01,0.001,-715.735899245537
15,86.9,12.4,0.279,0.125,0.236,0.008,0.002,0.005,0.004,0.001,0.0004,0.0,0.005,0.0,0.0,0.011,0.0008,0.0,0.0,0.002,0.003,0.004,0.0001,0.008,0.002,-715.500730620326
16,87.17,12.152,0.266,0.126,0.231,0.008,0.003,0.005,0.006,0.002,0.0004,0.0001,0.008,0.0,0.0,0.013,0.0007,0.0,0.0,0.002,0.0,0.001,0.0,0.008,0.003,-715.263601195878
17,87.4,11.94,0.259,0.124,0.222,0.01,0.003,0.005,0.003,0.001,0.0,0.0001,0.006,0.0,0.0,0.012,0.0002,0.0,0.0,0.0019,0.001,0.0,0.0,0.008,0.002,-715.045046969823
18,87.52,11.826,0.249,0.123,0.217,0.01,0.003,0.005,0.005,0.001,0.0005,0.0,0.01,0.0,0.0,0.013,0.0002,0.0,0.0,0.0019,0.0,0.004,0.0,0.008,0.002,-714.824768866619
19,87.75,11.631,0.234,0.123,0.208,0.009,0.003,0.004,0.005,0.0,0.0003,0.0,0.005,0.0,0.0,0.013,0.0003,0.0,0.0,0.002,0.0,0.0,0.0,0.008,0.0,-714.622311881955
20,87.82,11.561,0.229,0.123,0.203,0.009,0.003,0.005,0.007,0.0,0.0001,0.0,0.006,0.0,0.0,0.013,0.0011,0.0,0.0,0.002,0.0,0.003,0.0,0.01,0.001,-714.418227015871
21,87.94,11.462,0.22,0.121,0.195,0.009,0.002,0.005,0.007,0.0,0.0004,0.0,0.006,0.0,0.0,0.012,0.0007,0.0,0.0,0.0019,0.001,0.005,0.0,0.008,0.0,-714.23055261659
22,88.11,11.317,0.21,0.122,0.19,0.008,0.002,0.004,0.003,0.001,0.0003,0.0,0.004,0.0,0.0,0.014,0.0011,0.0,0.0,0.0019,0.001,0.003,0.0,0.007,0.0,-714.042171478647
23,88.24,11.207,0.198,0.119,0.183,0.009,0.002,0.005,0.002,0.0,0.0002,0.0,0.006,0.0,0.0,0.013,0.0009,0.0,0.0,0.0019,0.002,0.002,0.0,0.007,0.0,-713.868993149533
24,88.33,11.124,0.187,0.119,0.179,0.009,0.002,0.005,0.007,0.002,0.0002,0.0,0.004,0.0,0.0,0.013,0.0001,0.0,0.0,0.002,0.0,0.007,0.0,0.007,0.003,-713.695336758597
25,88.47,11.001,0.182,0.119,0.177,0.01,0.002,0.004,0.005,0.0,0.0005,0.0001,0.005,0.0,0.0,0.013,0.0011,0.0,0.0,0.0019,0.0,0.003,0.0,0.006,0.001,-713.5361056962
26,88.62,10.872,0.174,0.119,0.171,0.006,0.002,0.005,0.005,0.001,0.0002,0.0,0.004,0.0,0.0,0.013,0.0023,0.0,0.0,0.002,0.0,0.001,0.0,0.007,0.0,-713.37673391458
27,88.85,10.644,0.164,0.117,0.167,0.009,0.002,0.004,0.005,0.0,0.0003,0.0,0.005,0.0,0.0,0.013,0.0005,0.0,0.0,0.002,0.001,0.001,0.0,0.012,0.001,-713.224343954392
28,89.1,10.407,0.159,0.116,0.165,0.008,0.002,0.004,0.006,0.001,0.0004,0.0,0.002,0.0,0.0,0.014,0.0008,0.0,0.0,0.002,0.0,0.006,0.0,0.007,0.001,-713.085169727038
29,89.41,10.11,0.149,0.115,0.166,0.008,0.002,0.004,0.003,0.001,0.0007,0.0,0.004,0.0,0.0,0.013,0.0003,0.0,0.0,0.002,0.0,0.001,0.0,0.008,0.0,-712.946518847529
30,89.65,9.877,0.148,0.115,0.159,0.008,0.002,0.005,0.003,0.0,0.0003,0.0,0.002,0.0,0.0,0.014,0.0006,0.0,0.0,0.0019,0.0,0.001,0.0,0.007,0.002,-712.814514680404
31,89.88,9.645,0.144,0.118,0.157,0.009,0.002,0.004,0.005,0.0,0.0007,0.0,0.004,0.0,0.0,0.014,0.0004,0.0,0.0,0.002,0.0,0.005,0.0,0.008,0.0,-712.694271851232
32,90.24,9.318,0.132,0.113,0.151,0.009,0.002,0.004,0.003,0.001,0.0001,0.0,0.002,0.0,0.0,0.015,0.0002,0.0,0.0,0.002,0.0,0.001,0.0,0.008,0.002,-712.574725173578
33,90.61,8.931,0.129,0.117,0.147,0.011,0.002,0.005,0.007,0.002,0.0001,0.0,0.001,0.0,0.0,0.015,0.0015,0.0,0.0,0.0019,0.0,0.008,0.0,0.009,0.001,-712.461665544477
34,90.99,8.576,0.122,0.114,0.146,0.01,0.002,0.004,0.004,0.001,0.0002,0.0,0.0,0.0,0.0,0.014,0.0004,0.0,0.0,0.002,0.0,0.003,0.0,0.01,0.001,-712.354710613434
35,91.29,8.275,0.121,0.117,0.145,0.01,0.002,0.004,0.007,0.002,0.0003,0.0,0.001,0.0,0.0,0.015,0.0,0.0,0.0,0.002,0.0,0.001,0.0,0.007,0.0,-712.258224290285
36,91.64,7.933,0.118,0.114,0.145,0.008,0.002,0.004,0.005,0.0,0.0003,0.0,0.0,0.0,0.0,0.014,0.0002,0.0,0.0,0.0019,0.0,0.0,0.0,0.009,0.001,-712.163143846808
37,92.02,7.544,0.118,0.113,0.146,0.008,0.002,0.005,0.006,0.002,0.0005,0.0,0.001,0.0,0.001,0.014,0.0,0.0,0.0,0.002,0.002,0.001,0.0,0.007,0.003,-712.073689853671
38,92.39,7.191,0.112,0.112,0.142,0.011,0.001,0.005,0.005,0.004,0.0002,0.0,0.001,0.0,0.0,0.015,0.0001,0.0,0.0,0.0019,0.001,0.0,0.0,0.008,0.0,-711.989916420739
39,92.75,6.841,0.106,0.112,0.141,0.008,0.002,0.005,0.008,0.001,0.0002,0.0001,0.0,0.0,0.0,0.016,0.0002,0.0,0.0,0.002,0.002,0.001,0.0,0.008,0.0,-711.911574603358
40,93.06,6.54,0.102,0.111,0.137,0.01,0.001,0.004,0.006,0.002,0.0002,0.0,0.0,0.0,0.0,0.016,0.0008,0.0,0.0,0.0019,0.0,0.0,0.0,0.007,0.002,-711.838592052372
41,93.37,6.216,0.103,0.109,0.14,0.01,0.002,0.004,0.007,0.0,0.0002,0.0,0.001,0.0,0.0,0.016,0.0001,0.0,0.0,0.0019,0.001,0.009,0.0,0.01,0.0,-711.770839003389
42,93.72,5.879,0.1,0.109,0.139,0.01,0.001,0.005,0.005,0.002,0.0002,0.0,0.001,0.0,0.0,0.015,0.0,0.0,0.0,0.0019,0.001,0.0,0.0,0.01,0.0,-711.708104581614
43,94.03,5.57,0.095,0.11,0.137,0.012,0.002,0.005,0.007,0.0,0.0001,0.0,0.003,0.0,0.0,0.015,0.0,0.0,0.0,0.0019,0.003,0.001,0.0,0.006,0.0,-711.650359526264
44,94.31,5.297,0.097,0.109,0.136,0.009,0.002,0.004,0.004,0.002,0.0002,0.0,0.002,0.0,0.0,0.015,0.0,0.0,0.0,0.002,0.001,0.002,0.0,0.006,0.001,-711.597514522821
45,94.59,5.018,0.095,0.109,0.132,0.008,0.001,0.004,0.006,0.003,0.0003,0.0,0.001,0.0,0.0,0.014,0.0003,0.0,0.0,0.002,0.002,0.001,0.0,0.009,0.0,-711.549310698637
46,94.81,4.807,0.091,0.108,0.134,0.009,0.002,0.003,0.006,0.004,0.0003,0.0,0.0,0.0,0.0,0.015,0.0003,0.0,0.0,0.002,0.0,0.001,0.0,0.01,0.001,-711.505684644119
47,95.03,4.586,0.094,0.11,0.127,0.012,0.002,0.004,0.005,0.003,0.0002,0.0,0.001,0.0,0.0,0.014,0.0,0.0,0.0,0.002,0.0,0.0,0.0,0.012,0.001,-711.46661244196
48,95.24,4.383,0.091,0.106,0.128,0.009,0.002,0.005,0.008,0.006,0.0004,0.0,0.0,0.0,0.0,0.015,0.0004,0.0,0.0,0.002,0.0,0.001,0.0,0.008,0.001,-711.430504694376
49,95.46,4.154,0.09,0.107,0.129,0.011,0.002,0.004,0.006,0.004,0.0008,0.0,0.002,0.0,0.0,0.016,0.0,0.0,0.0,0.002,0.001,0.003,0.0,0.011,0.001,-711.400274048272
50,95.63,3.998,0.086,0.106,0.125,0.009,0.002,0.004,0.007,0.005,0.0004,0.0,0.001,0.0,0.0,0.017,0.0004,0.0,0.0001,0.002,0.0,0.001,0.0,0.011,0.0,-711.374242905401
51,95.8,3.835,0.085,0.105,0.127,0.01,0.002,0.004,0.005,0.003,0.0003,0.0,0.0,0.0,0.0,0.016,0.0002,0.0,0.0,0.002,0.001,0.0,0.0,0.009,0.0,-711.352263055516
52,95.95,3.68,0.083,0.103,0.127,0.009,0.002,0.004,0.006,0.005,0.0004,0.0,0.001,0.0,0.0,0.018,0.0003,0.0,0.0,0.002,0.001,0.0,0.0,0.009,0.0,-711.334266194642
53,96.11,3.525,0.082,0.102,0.129,0.01,0.002,0.004,0.004,0.004,0.0002,0.0,0.0,0.0,0.0,0.015,0.0001,0.0,0.0,0.002,0.0,0.0,0.0,0.01,0.0,-711.319565457684
54,96.2,3.424,0.08,0.102,0.129,0.011,0.002,0.004,0.01,0.005,0.0006,0.0,0.0,0.0,0.0,0.016,0.0003,0.0,0.0,0.002,0.0,0.002,0.0,0.011,0.0,-711.308935609266
55,96.32,3.304,0.083,0.101,0.127,0.011,0.002,0.004,0.007,0.008,0.0006,0.0,0.0,0.0,0.0,0.017,0.0003,0.0,0.0,0.0019,0.001,0.002,0.0,0.01,0.0,-711.302876893948
56,96.42,3.214,0.081,0.102,0.124,0.011,0.002,0.004,0.008,0.006,0.0002,0.0,0.0,0.0,0.0,0.015,0.0,0.0,0.0,0.002,0.001,0.0,0.0,0.012,0.0,-711.299568712557
57,96.51,3.126,0.077,0.102,0.125,0.011,0.001,0.005,0.007,0.005,0.0004,0.0,0.0,0.0,0.0,0.016,0.0,0.0,0.0,0.002,0.0,0.0,0.0,0.01,0.0,-711.29999813754
58,96.63,3.016,0.075,0.099,0.128,0.01,0.002,0.005,0.005,0.003,0.0007,0.0,0.0,0.0,0.0,0.017,0.0003,0.0,0.0,0.002,0.0,0.0,0.0,0.009,0.0,-711.304066503446
59,96.69,2.944,0.079,0.099,0.129,0.01,0.002,0.004,0.006,0.004,0.0004,0.0,0.0,0.0,0.0,0.017,0.0,0.0,0.0,0.002,0.0,0.0,0.0,0.012,0.0,-711.311669313699
60,96.76,2.873,0.08,0.099,0.13,0.01,0.002,0.004,0.006,0.005,0.0002,0.0,0.0,0.0,0.0,0.016,0.0004,0.0,0.0,0.002,0.0,0.0,0.0,0.012,0.0,-711.321154892661
61,96.86,2.783,0.076,0.096,0.129,0.01,0.001,0.003,0.009,0.006,0.0002,0.0,0.0,0.0,0.0,0.016,0.0005,0.0,0.0001,0.002,0.0,0.0,0.0,0.011,0.0,-711.335113317914
62,96.92,2.716,0.073,0.097,0.134,0.012,0.001,0.003,0.008,0.005,0.0003,0.0,0.0,0.0,0.0,0.014,0.0,0.0,0.0,0.002,0.0,0.0,0.0,0.012,0.0,-711.352328732305
63,97.01,2.627,0.076,0.095,0.136,0.011,0.002,0.004,0.007,0.004,0.0003,0.0,0.0,0.0,0.0,0.015,0.0,0.0,0.0,0.002,0.001,0.0,0.0,0.012,0.0,-711.372724350861
64,97.04,2.587,0.078,0.095,0.138,0.012,0.002,0.004,0.01,0.005,0.0,0.0,0.0,0.0,0.0,0.017,0.0,0.0,0.0001,0.002,0.0,0.0,0.0,0.012,0.0,-711.396198988162
65,97.09,2.536,0.076,0.094,0.138,0.012,0.002,0.004,0.007,0.006,0.0001,0.0,0.0,0.0,0.0,0.016,0.0,0.0,0.0,0.002,0.0,0.0,0.0,0.012,0.001,-711.422681815158
66,97.12,2.506,0.078,0.093,0.142,0.011,0.002,0.004,0.009,0.005,0.0005,0.0,0.0,0.0,0.0,0.016,0.0,0.0,0.0001,0.002,0.0,0.0,0.0,0.013,0.0,-711.448257952179
67,97.19,2.436,0.076,0.093,0.145,0.012,0.002,0.004,0.009,0.005,0.0002,0.0,0.0,0.0,0.0,0.017,0.0002,0.0,0.0002,0.002,0.0,0.0,0.0,0.013,0.0,-711.480161393829
68,97.24,2.386,0.073,0.092,0.151,0.011,0.001,0.004,0.007,0.006,0.0001,0.0,0.0,0.0,0.0,0.015,0.0002,0.0,0.0001,0.002,0.0,0.0,0.0,0.009,0.0,-711.514788933904
69,97.29,2.335,0.072,0.091,0.154,0.01,0.002,0.004,0.007,0.007,0.0003,0.0,0.0,0.0,0.0,0.016,0.0001,0.0,0.0001,0.002,0.0,0.0,0.0,0.012,0.0,-711.552101051808
70,97.31,2.302,0.073,0.092,0.158,0.012,0.002,0.004,0.006,0.009,0.0003,0.0,0.0,0.0,0.0,0.017,0.0001,0.0,0.0001,0.002,0.0,0.001,0.0,0.013,0.001,-711.591962675078
71,97.34,2.257,0.075,0.092,0.164,0.011,0.002,0.004,0.007,0.008,0.0005,0.0,0.0,0.0,0.0,0.017,0.0,0.0,0.0001,0.002,0.0,0.006,0.0,0.014,0.0,-711.628915926059
72,97.4,2.21,0.074,0.09,0.169,0.011,0.002,0.004,0.008,0.006,0.0001,0.0,0.0,0.0,0.0,0.013,0.0,0.0,0.0001,0.002,0.0,0.0,0.0,0.013,0.003,-711.673471531857
73,97.45,2.144,0.073,0.089,0.177,0.012,0.002,0.004,0.007,0.007,0.0001,0.0,0.0,0.0,0.0,0.016,0.0,0.0,0.0001,0.002,0.0,0.0,0.0,0.012,0.001,-711.72037159243
74,97.47,2.127,0.07,0.088,0.181,0.013,0.001,0.005,0.008,0.006,0.0003,0.0,0.0,0.0,0.0,0.017,0.0,0.0,0.0001,0.002,0.0,0.0,0.0,0.013,0.0,-711.769568357497
75,97.49,2.102,0.069,0.087,0.186,0.012,0.001,0.004,0.009,0.006,0.0001,0.0,0.0,0.0,0.0,0.016,0.0001,0.0,0.0002,0.002,0.0,0.001,0.0,0.014,0.0,-711.814428462666
76,97.53,2.056,0.068,0.088,0.194,0.013,0.002,0.004,0.006,0.007,0.0005,0.0,0.0,0.0,0.0,0.016,0.0,0.0,0.0002,0.002,0.0,0.0,0.0,0.012,0.002,-711.867694585678
77,97.55,2.024,0.072,0.086,0.199,0.012,0.002,0.005,0.009,0.009,0.0007,0.0,0.0,0.0,0.0,0.014,0.0004,0.0,0.0002,0.002,0.0,0.0,0.0001,0.012,0.001,-711.923000305545
78,97.57,1.997,0.07,0.086,0.207,0.01,0.002,0.004,0.009,0.008,0.0007,0.0,0.0,0.0,0.0,0.014,0.0,0.0,0.0001,0.002,0.0,0.006,0.0001,0.012,0.004,-711.980345710355
79,97.57,1.986,0.073,0.084,0.216,0.01,0.002,0.004,0.007,0.008,0.0003,0.0,0.0,0.0,0.0,0.014,0.0,0.0,0.0002,0.0019,0.0,0.007,0.0001,0.014,0.004,-712.032110790546
80,97.59,1.956,0.076,0.084,0.223,0.011,0.002,0.004,0.006,0.009,0.0006,0.0,0.0,0.0,0.0,0.016,0.0,0.0,0.0003,0.002,0.0,0.0,0.0,0.014,0.003,-712.092979169115
81,97.63,1.914,0.074,0.085,0.231,0.011,0.002,0.005,0.008,0.009,0.0006,0.0,0.0,0.0,0.0,0.017,0.0,0.0,0.0002,0.002,0.0,0.001,0.0001,0.014,0.001,-712.155639788175
82,97.63,1.903,0.074,0.083,0.238,0.01,0.001,0.004,0.008,0.009,0.0002,0.0,0.0,0.0,0.0,0.015,0.0001,0.0,0.0002,0.002,0.0,0.004,0.0001,0.013,0.004,-712.220064900915
83,97.64,1.866,0.076,0.084,0.252,0.012,0.002,0.005,0.011,0.01,0.0002,0.0,0.0,0.0,0.0,0.016,0.0,0.0,0.0002,0.002,0.001,0.008,0.0001,0.012,0.007,-712.277819476111
84,97.62,1.873,0.077,0.083,0.265,0.012,0.002,0.004,0.006,0.011,0.0007,0.0,0.0,0.0,0.0,0.015,0.0,0.0,0.0001,0.002,0.001,0.006,0.0001,0.013,0.007,-712.345246284119
85,97.66,1.834,0.08,0.082,0.27,0.011,0.002,0.004,0.006,0.011,0.0002,0.0,0.0,0.0,0.0,0.015,0.0002,0.0,0.0002,0.0019,0.0,0.0,0.0002,0.014,0.006,-712.414239481349
86,97.66,1.822,0.08,0.083,0.283,0.009,0.002,0.005,0.008,0.012,0.0,0.0,0.0,0.0,0.0,0.015,0.0006,0.0,0.0003,0.002,0.0,0.001,0.0001,0.013,0.009,-712.48454386226
87,97.68,1.798,0.081,0.082,0.293,0.01,0.001,0.005,0.007,0.01,0.0004,0.0,0.0,0.0,0.0,0.016,0.0003,0.0,0.0002,0.0019,0.0,0.003,0.0001,0.013,0.003,-712.54717899205
88,97.67,1.789,0.082,0.081,0.305,0.012,0.001,0.004,0.007,0.01,0.0004,0.0,0.0,0.0,0.0,0.015,0.0,0.0,0.0002,0.002,0.0,0.002,0.0001,0.011,0.007,-712.620070323982
89,97.67,1.78,0.08,0.079,0.311,0.009,0.001,0.004,0.008,0.011,0.0002,0.0,0.0,0.0,0.0,0.017,0.0,0.0,0.0001,0.002,0.0,0.0,0.0,0.012,0.011,-712.694267835182
90,97.65,1.774,0.087,0.081,0.327,0.01,0.002,0.005,0.005,0.009,0.0006,0.0,0.001,0.0,0.0,0.015,0.0,0.0,0.0001,0.002,0.002,0.0,0.0,0.014,0.013,-712.769556550911
91,97.65,1.764,0.085,0.082,0.338,0.01,0.002,0.004,0.006,0.011,0.0003,0.0,0.0,0.0,0.0,0.016,0.0,0.0,0.0002,0.002,0.002,0.0,0.0,0.015,0.015,-712.836418546152
92,97.65,1.754,0.085,0.077,0.361,0.011,0.002,0.004,0.006,0.011,0.0003,0.0,0.0,0.0,0.0,0.016,0.0,0.0,0.0001,0.002,0.0,0.002,0.0,0.012,0.01,-712.913768951585
93,97.65,1.74,0.086,0.08,0.367,0.012,0.002,0.004,0.005,0.01,0.0005,0.0,0.0,0.0,0.0,0.015,0.0,0.0,0.0001,0.002,0.001,0.004,0.0001,0.013,0.014,-712.992227701057
94,97.64,1.724,0.087,0.079,0.389,0.013,0.002,0.005,0.006,0.011,0.0005,0.0,0.0,0.0,0.0,0.016,0.0,0.0,0.0002,0.002,0.001,0.0,0.0,0.014,0.017,-713.061591571893
95,97.63,1.708,0.088,0.078,0.407,0.009,0.002,0.004,0.008,0.011,0.0001,0.0,0.0,0.0,0.0,0.015,0.0008,0.0,0.0002,0.002,0.0,0.004,0.0001,0.014,0.016,-713.141665999782
96,97.61,1.709,0.089,0.078,0.427,0.012,0.002,0.004,0.007,0.01,0.0004,0.0,0.0,0.0,0.0,0.015,0.0,0.0,0.0002,0.002,0.002,0.0,0.0002,0.015,0.016,-713.22261814844
97,97.58,1.721,0.09,0.078,0.438,0.011,0.002,0.005,0.007,0.013,0.0003,0.0,0.0,0.0,0.0,0.014,0.0003,0.0,0.0003,0.002,0.002,0.0,0.0001,0.012,0.02,-713.293974230132
98,97.58,1.689,0.098,0.079,0.46,0.013,0.001,0.005,0.008,0.012,0.0005,0.0,0.0,0.0,0.0,0.014,0.0001,0.0,0.0001,0.002,0.005,0.0,0.0001,0.012,0.02,-713.376150294023
99,97.54,1.694,0.1,0.079,0.484,0.011,0.001,0.005,0.006,0.01,0.0006,0.0,0.0,0.0,0.0,0.015,0.0,0.0,0.0002,0.002,0.007,0.004,0.0001,0.014,0.023,-713.459139485669
100,97.54,1.688,0.102,0.078,0.499,0.009,0.002,0.004,0.007,0.01,0.0003,0.0,0.001,0.0,0.0,0.018,0.0,0.0,0.0002,0.002,0.003,0.003,0.0002,0.013,0.016,-713.532265610872
101,97.51,1.689,0.102,0.079,0.519,0.012,0.002,0.003,0.007,0.011,0.0006,0.0,0.0,0.0,0.0,0.014,0.0003,0.0,0.0003,0.002,0.005,0.007,0.0001,0.013,0.021,-713.616266142033
102,97.5,1.684,0.102,0.078,0.538,0.011,0.002,0.004,0.007,0.012,0.0007,0.0,0.0,0.0,0.0,0.015,0.0006,0.0,0.0003,0.002,0.001,0.0,0.0,0.013,0.026,-713.700635749633
103,97.48,1.688,0.103,0.078,0.551,0.011,0.002,0.004,0.007,0.012,0.0005,0.0,0.0,0.0,0.0,0.013,0.0001,0.0,0.0002,0.002,0.004,0.005,0.0002,0.015,0.025,-713.77477564685
104,97.44,1.69,0.107,0.079,0.57,0.009,0.002,0.005,0.008,0.014,0.0005,0.0,0.0,0.0,0.0,0.014,0.0002,0.0,0.0002,0.0019,0.011,0.011,0.0002,0.012,0.029,-713.859897777834
105,97.44,1.68,0.11,0.077,0.593,0.01,0.001,0.006,0.007,0.013,0.0006,0.0,0.0,0.0,0.0,0.015,0.0003,0.0,0.0002,0.002,0.003,0.001,0.0001,0.014,0.026,-713.945336840923
106,97.43,1.679,0.11,0.077,0.611,0.009,0.001,0.006,0.005,0.012,0.0006,0.0,0.0,0.0001,0.0,0.015,0.0004,0.0,0.0003,0.002,0.003,0.001,0.0001,0.013,0.027,-714.020357933642
107,97.38,1.682,0.107,0.079,0.633,0.01,0.001,0.006,0.007,0.014,0.0008,0.0,0.0,0.0001,0.0,0.016,0.0,0.0,0.0003,0.002,0.015,0.004,0.0001,0.012,0.028,-714.106249696711
108,97.35,1.688,0.11,0.077,0.653,0.012,0.001,0.004,0.005,0.014,0.0006,0.0,0.0,0.0,0.0,0.014,0.0005,0.0,0.0002,0.002,0.011,0.005,0.0,0.014,0.035,-714.192187726112
109,97.31,1.7,0.115,0.079,0.674,0.011,0.001,0.005,0.006,0.014,0.0005,0.0,0.001,0.0,0.0,0.014,0.0001,0.0,0.0002,0.002,0.004,0.01,0.0002,0.013,0.04,-714.267524922734
110,97.3,1.695,0.118,0.078,0.69,0.013,0.001,0.006,0.007,0.014,0.0009,0.0001,0.0,0.0,0.0,0.014,0.0,0.0,0.0003,0.002,0.009,0.001,0.0002,0.013,0.04,-714.353568939805
111,97.29,1.684,0.12,0.078,0.709,0.012,0.001,0.005,0.009,0.015,0.0009,0.0,0.0,0.0001,0.0,0.014,0.0012,0.0,0.0002,0.002,0.003,0.002,0.0001,0.014,0.039,-714.439620883817
112,97.25,1.683,0.125,0.078,0.726,0.013,0.001,0.005,0.008,0.015,0.0014,0.0,0.0,0.0001,0.0,0.016,0.0001,0.0,0.0002,0.002,0.01,0.013,0.0002,0.014,0.043,-714.51500567201
113,97.22,1.703,0.126,0.078,0.749,0.011,0.001,0.005,0.006,0.017,0.0012,0.0,0.0,0.0001,0.0,0.014,0.0,0.0,0.0001,0.002,0.01,0.006,0.0001,0.013,0.04,-714.600941502824
114,97.2,1.702,0.13,0.077,0.768,0.011,0.002,0.005,0.006,0.016,0.001,0.0001,0.0,0.0,0.0,0.013,0.0,0.0,0.0002,0.002,0.009,0.007,0.0002,0.014,0.042,-714.675991793711
115,97.19,1.694,0.125,0.078,0.787,0.011,0.002,0.006,0.006,0.018,0.0013,0.0,0.0,0.0,0.0,0.013,0.0005,0.0,0.0002,0.0019,0.012,0.001,0.0001,0.012,0.044,-714.761523271212
116,97.18,1.681,0.131,0.078,0.802,0.01,0.001,0.006,0.005,0.018,0.0011,0.0,0.0,0.0,0.0,0.015,0.0001,0.0,0.0003,0.0019,0.009,0.001,0.0,0.012,0.046,-714.846825370537
117,97.17,1.683,0.131,0.078,0.818,0.009,0.001,0.005,0.006,0.02,0.001,0.0,0.0,0.0,0.0,0.015,0.0,0.0,0.0002,0.002,0.001,0.001,0.0001,0.013,0.042,-714.921269630758
118,97.16,1.678,0.128,0.078,0.837,0.008,0.001,0.005,0.008,0.016,0.0011,0.0,0.0,0.0,0.0,0.015,0.0,0.0,0.0003,0.0019,0.004,0.005,0.0001,0.012,0.046,-715.00596390587
119,97.11,1.691,0.132,0.078,0.857,0.01,0.001,0.005,0.008,0.016,0.0008,0.0,0.0,0.0,0.0,0.014,0.0004,0.0,0.0003,0.0019,0.008,0.007,0.0001,0.013,0.051,-715.090182490836
120,97.09,1.686,0.136,0.08,0.87,0.01,0.001,0.005,0.006,0.017,0.001,0.0,0.0,0.0,0.0,0.015,0.0,0.0,0.0002,0.0019,0.018,0.003,0.0001,0.013,0.052,-715.163624062591
121,97.06,1.671,0.143,0.079,0.897,0.01,0.001,0.005,0.006,0.016,0.0012,0.0,0.0,0.0001,0.0,0.014,0.0005,0.0,0.0003,0.0019,0.014,0.009,0.0001,0.011,0.055,-715.247042429726
122,97.04,1.683,0.139,0.077,0.911,0.011,0.001,0.005,0.005,0.018,0.001,0.0,0.0,0.0,0.0,0.014,0.0003,0.0,0.0003,0.002,0.018,0.006,0.0,0.014,0.056,-715.319726820336
123,97.0,1.694,0.143,0.079,0.933,0.012,0.001,0.005,0.006,0.016,0.0008,0.0001,0.001,0.0,0.0,0.013,0.0,0.0,0.0003,0.002,0.016,0.009,0.0001,0.014,0.058,-715.402240699084
124,96.96,1.713,0.142,0.078,0.955,0.012,0.001,0.005,0.008,0.017,0.0009,0.0,0.0,0.0001,0.0,0.014,0.0002,0.0,0.0003,0.002,0.017,0.005,0.0,0.013,0.059,-715.484176279553
